#    Temp  PTF_R_AB   u       g      r      i      z       U      B      V      R      I
   1000.0   -11.62  -28.81 -18.85 -12.84  -9.24  -6.56  -27.24 -19.74 -14.70 -10.16  -7.82
   1072.3   -10.38  -26.32 -17.10 -11.51  -8.18  -5.72  -24.81 -17.96 -13.28  -9.08  -6.84
   1149.8    -9.24  -24.01 -15.49 -10.29  -7.21  -4.95  -22.56 -16.32 -11.96  -8.08  -5.93
   1232.8    -8.20  -21.87 -14.00  -9.16  -6.32  -4.24  -20.47 -14.80 -10.73  -7.16  -5.11
   1321.9    -7.24  -19.89 -12.62  -8.13  -5.51  -3.61  -18.54 -13.39  -9.60  -6.32  -4.36
   1417.5    -6.37  -18.06 -11.35  -7.18  -4.77  -3.03  -16.74 -12.09  -8.56  -5.54  -3.67
   1519.9    -5.57  -16.37 -10.19  -6.31  -4.10  -2.51  -15.09 -10.89  -7.60  -4.83  -3.06
   1629.8    -4.84  -14.81  -9.11  -5.52  -3.49  -2.05  -13.56  -9.78  -6.72  -4.17  -2.50
   1747.5    -4.18  -13.36  -8.13  -4.81  -2.95  -1.63  -12.15  -8.76  -5.92  -3.58  -2.00
   1873.8    -3.58  -12.03  -7.22  -4.15  -2.46  -1.27  -10.85  -7.82  -5.18  -3.04  -1.56
   2009.2    -3.04  -10.81  -6.39  -3.56  -2.02  -0.94   -9.65  -6.96  -4.51  -2.55  -1.16
   2154.4    -2.56   -9.69  -5.64  -3.03  -1.63  -0.66   -8.55  -6.17  -3.90  -2.10  -0.81
   2310.1    -2.13   -8.66  -4.95  -2.56  -1.28  -0.42   -7.55  -5.45  -3.35  -1.71  -0.50
   2477.1    -1.74   -7.72  -4.33  -2.13  -0.98  -0.21   -6.62  -4.79  -2.86  -1.35  -0.23
   2656.1    -1.40   -6.85  -3.76  -1.75  -0.72  -0.03   -5.78  -4.20  -2.41  -1.04  -0.00
   2848.0    -1.10   -6.07  -3.25  -1.42  -0.49   0.11   -5.02  -3.66  -2.02  -0.77   0.19
   3053.9    -0.85   -5.35  -2.79  -1.13  -0.30   0.22   -4.32  -3.17  -1.66  -0.53   0.35
   3274.5    -0.63   -4.70  -2.38  -0.87  -0.15   0.31   -3.69  -2.73  -1.36  -0.32   0.48
   3511.2    -0.44   -4.12  -2.01  -0.66  -0.02   0.37   -3.12  -2.34  -1.09  -0.15   0.59
   3764.9    -0.28   -3.59  -1.69  -0.48   0.08   0.41   -2.61  -2.00  -0.85  -0.01   0.66
   4037.0    -0.16   -3.12  -1.41  -0.33   0.15   0.43   -2.15  -1.69  -0.66   0.11   0.72
   4328.8    -0.06   -2.69  -1.16  -0.21   0.20   0.42   -1.74  -1.43  -0.49   0.20   0.75
   4641.6     0.01   -2.32  -0.95  -0.11   0.23   0.40   -1.38  -1.20  -0.36   0.26   0.76
   4977.0     0.06   -1.99  -0.77  -0.04   0.24   0.36   -1.06  -1.00  -0.25   0.30   0.75
   5336.7     0.08   -1.70  -0.63   0.00   0.23   0.31   -0.78  -0.84  -0.17   0.32   0.72
   5722.4     0.09   -1.45  -0.51   0.02   0.20   0.24   -0.54  -0.70  -0.11   0.32   0.67
   6135.9     0.08   -1.24  -0.42   0.03   0.15   0.16   -0.34  -0.60  -0.08   0.31   0.61
   6579.3     0.05   -1.06  -0.35   0.01   0.09   0.07   -0.17  -0.51  -0.07   0.27   0.54
   7054.8    -0.00   -0.91  -0.31  -0.02   0.01  -0.03   -0.03  -0.46  -0.07   0.22   0.46
   7564.6    -0.06   -0.79  -0.29  -0.07  -0.07  -0.15    0.08  -0.42  -0.10   0.16   0.36
   8111.3    -0.14   -0.70  -0.28  -0.14  -0.17  -0.27    0.16  -0.41  -0.14   0.08   0.25
   8697.5    -0.23   -0.64  -0.30  -0.22  -0.28  -0.40    0.22  -0.42  -0.20  -0.01   0.13
   9326.0    -0.33   -0.59  -0.33  -0.31  -0.40  -0.54    0.25  -0.44  -0.27  -0.11   0.01
  10000.0    -0.44   -0.57  -0.38  -0.41  -0.53  -0.69    0.27  -0.48  -0.35  -0.22  -0.13
  10722.7    -0.55   -0.57  -0.45  -0.52  -0.66  -0.84    0.26  -0.54  -0.44  -0.34  -0.27
  11497.6    -0.68   -0.59  -0.52  -0.64  -0.80  -1.00    0.24  -0.61  -0.55  -0.47  -0.42
  12328.5    -0.82   -0.63  -0.61  -0.77  -0.95  -1.16    0.20  -0.69  -0.67  -0.60  -0.57
  13219.4    -0.96   -0.68  -0.71  -0.90  -1.11  -1.33    0.14  -0.78  -0.79  -0.75  -0.73
  14174.7    -1.11   -0.74  -0.82  -1.05  -1.27  -1.51    0.07  -0.89  -0.92  -0.90  -0.90
  15199.1    -1.27   -0.82  -0.94  -1.20  -1.44  -1.68   -0.01  -1.00  -1.06  -1.05  -1.07
  16297.5    -1.43   -0.91  -1.07  -1.36  -1.61  -1.86   -0.10  -1.12  -1.21  -1.22  -1.25
  17475.3    -1.59   -1.01  -1.21  -1.52  -1.78  -2.05   -0.21  -1.26  -1.36  -1.38  -1.42
  18738.2    -1.77   -1.13  -1.35  -1.69  -1.96  -2.24   -0.32  -1.40  -1.52  -1.55  -1.61
  20092.3    -1.94   -1.25  -1.50  -1.86  -2.15  -2.43   -0.45  -1.54  -1.69  -1.73  -1.79
  21544.3    -2.12   -1.38  -1.66  -2.03  -2.33  -2.62   -0.58  -1.69  -1.86  -1.91  -1.98
  23101.3    -2.30   -1.52  -1.82  -2.21  -2.52  -2.82   -0.72  -1.85  -2.03  -2.09  -2.18
  24770.8    -2.49   -1.66  -1.99  -2.40  -2.72  -3.02   -0.87  -2.02  -2.21  -2.28  -2.37
  26560.9    -2.68   -1.81  -2.16  -2.58  -2.91  -3.22   -1.02  -2.19  -2.39  -2.47  -2.57
  28480.4    -2.87   -1.97  -2.33  -2.78  -3.11  -3.42   -1.18  -2.36  -2.58  -2.66  -2.77
  30538.6    -3.07   -2.13  -2.51  -2.97  -3.31  -3.62   -1.35  -2.54  -2.77  -2.86  -2.97
  32745.5    -3.27   -2.30  -2.70  -3.16  -3.51  -3.83   -1.52  -2.72  -2.96  -3.05  -3.17
  35111.9    -3.47   -2.47  -2.88  -3.36  -3.71  -4.04   -1.69  -2.90  -3.15  -3.25  -3.38
  37649.4    -3.67   -2.65  -3.07  -3.56  -3.92  -4.25   -1.87  -3.09  -3.35  -3.46  -3.58
  40370.2    -3.87   -2.83  -3.26  -3.76  -4.12  -4.46   -2.05  -3.28  -3.55  -3.66  -3.79
  43287.6    -4.08   -3.02  -3.46  -3.97  -4.33  -4.67   -2.23  -3.48  -3.75  -3.86  -4.00
  46415.9    -4.28   -3.20  -3.66  -4.17  -4.54  -4.88   -2.42  -3.67  -3.95  -4.07  -4.21
  49770.2    -4.49   -3.39  -3.86  -4.38  -4.75  -5.10   -2.61  -3.87  -4.15  -4.28  -4.42
  53367.0    -4.70   -3.59  -4.06  -4.59  -4.97  -5.31   -2.81  -4.07  -4.36  -4.49  -4.64
  57223.7    -4.91   -3.78  -4.26  -4.80  -5.18  -5.53   -3.00  -4.27  -4.57  -4.70  -4.85
  61359.1    -5.12   -3.98  -4.47  -5.01  -5.39  -5.74   -3.20  -4.48  -4.78  -4.91  -5.07
  65793.3    -5.34   -4.18  -4.67  -5.22  -5.61  -5.96   -3.40  -4.68  -4.99  -5.13  -5.28
  70548.0    -5.55   -4.38  -4.88  -5.44  -5.82  -6.18   -3.61  -4.89  -5.20  -5.34  -5.50
  75646.3    -5.77   -4.59  -5.09  -5.65  -6.04  -6.40   -3.81  -5.10  -5.41  -5.56  -5.72
  81113.1    -5.98   -4.79  -5.30  -5.87  -6.26  -6.61   -4.02  -5.31  -5.63  -5.77  -5.93
  86974.9    -6.20   -5.00  -5.52  -6.08  -6.48  -6.83   -4.23  -5.52  -5.84  -5.99  -6.15
  93260.3    -6.42   -5.21  -5.73  -6.30  -6.70  -7.05   -4.43  -5.74  -6.06  -6.21  -6.37
 100000.0    -6.63   -5.42  -5.94  -6.52  -6.91  -7.27   -4.65  -5.95  -6.27  -6.42  -6.59
 107226.7    -6.85   -5.63  -6.16  -6.73  -7.13  -7.50   -4.86  -6.16  -6.49  -6.64  -6.81
 114975.7    -7.07   -5.84  -6.37  -6.95  -7.35  -7.72   -5.07  -6.38  -6.71  -6.86  -7.03
 123284.7    -7.29   -6.05  -6.59  -7.17  -7.57  -7.94   -5.28  -6.59  -6.92  -7.08  -7.25
 132194.1    -7.51   -6.26  -6.80  -7.39  -7.79  -8.16   -5.49  -6.81  -7.14  -7.30  -7.47
 141747.4    -7.73   -6.48  -7.02  -7.60  -8.01  -8.38   -5.70  -7.02  -7.36  -7.51  -7.69
 151991.1    -7.94   -6.69  -7.23  -7.82  -8.23  -8.59   -5.92  -7.23  -7.57  -7.73  -7.90
 162975.1    -8.15   -6.89  -7.44  -8.03  -8.44  -8.81   -6.12  -7.44  -7.78  -7.94  -8.12
 174752.8    -8.36   -7.10  -7.65  -8.24  -8.65  -9.02   -6.33  -7.65  -7.99  -8.15  -8.33
 187381.7    -8.57   -7.30  -7.85  -8.45  -8.86  -9.22   -6.53  -7.85  -8.20  -8.36  -8.54
 200923.3    -8.77   -7.50  -8.05  -8.65  -9.06  -9.43   -6.73  -8.05  -8.40  -8.56  -8.74
 215443.5    -8.96   -7.69  -8.24  -8.84  -9.25  -9.62   -6.92  -8.24  -8.59  -8.75  -8.93
 231013.0    -9.15   -7.87  -8.43  -9.03  -9.44  -9.81   -7.10  -8.43  -8.78  -8.94  -9.12
 247707.6    -9.33   -8.05  -8.61  -9.21  -9.62  -9.99   -7.28  -8.61  -8.96  -9.12  -9.30
 265608.8    -9.50   -8.22  -8.78  -9.38  -9.79 -10.16   -7.45  -8.78  -9.13  -9.29  -9.47
 284803.6    -9.67   -8.38  -8.94  -9.54  -9.96 -10.33   -7.61  -8.94  -9.29  -9.46  -9.64
 305385.6    -9.82   -8.53  -9.10  -9.70 -10.11 -10.49   -7.76  -9.10  -9.45  -9.61  -9.79
 327454.9    -9.97   -8.68  -9.24  -9.85 -10.26 -10.63   -7.91  -9.24  -9.59  -9.76  -9.94
 351119.2   -10.11   -8.82  -9.38  -9.98 -10.40 -10.77   -8.05  -9.38  -9.73  -9.90 -10.08
 376493.6   -10.24   -8.94  -9.51 -10.11 -10.53 -10.90   -8.17  -9.51  -9.86 -10.03 -10.21
 403701.7   -10.36   -9.06  -9.63 -10.24 -10.65 -11.03   -8.29  -9.63  -9.98 -10.15 -10.33
 432876.1   -10.48   -9.18  -9.74 -10.35 -10.77 -11.14   -8.41  -9.74 -10.10 -10.26 -10.45
 464158.9   -10.58   -9.28  -9.85 -10.46 -10.87 -11.25   -8.51  -9.85 -10.20 -10.37 -10.56
 497702.4   -10.68   -9.38  -9.95 -10.56 -10.97 -11.35   -8.61  -9.95 -10.30 -10.47 -10.66
 533669.9   -10.77   -9.47 -10.04 -10.65 -11.07 -11.44   -8.70 -10.04 -10.39 -10.56 -10.75
 572236.8   -10.86   -9.55 -10.12 -10.73 -11.15 -11.53   -8.79 -10.12 -10.48 -10.65 -10.83
 613590.7   -10.94   -9.63 -10.20 -10.81 -11.23 -11.61   -8.86 -10.20 -10.56 -10.73 -10.91
 657933.2   -11.01   -9.71 -10.28 -10.89 -11.31 -11.68   -8.94 -10.28 -10.63 -10.80 -10.99
 705480.2   -11.08   -9.77 -10.35 -10.96 -11.38 -11.75   -9.01 -10.35 -10.70 -10.87 -11.06
 756463.3   -11.15   -9.84 -10.41 -11.02 -11.44 -11.82   -9.07 -10.41 -10.77 -10.94 -11.12
 811130.8   -11.21   -9.89 -10.47 -11.08 -11.50 -11.87   -9.13 -10.47 -10.82 -10.99 -11.18
 869749.0   -11.26   -9.95 -10.52 -11.13 -11.55 -11.93   -9.18 -10.52 -10.88 -11.05 -11.24
 932603.3   -11.31  -10.00 -10.57 -11.19 -11.61 -11.98   -9.23 -10.57 -10.93 -11.10 -11.29
1000000.0   -11.36  -10.05 -10.62 -11.23 -11.65 -12.03   -9.28 -10.62 -10.98 -11.15 -11.33
